Time Lapsed (s), Asteroids in Universe, Total Mass (kg), Average Mass (kg), Most Massive (kg), Average Radius (km), Largest Radius (km)
1,1,1,1,1,51.96152,51.96152
2,4,533.1833,133.2958,251.0928,115.0965,151.6896
3,7,2385.351,340.7644,580.0921,162.4642,200.5287
4,10,5335.51,533.551,913.0918,188.5543,233.2647
5,14,9603.756,685.9825,1259.091,201.4202,259.6351
6,17,14246.91,838.0532,1556.092,215.8744,278.6269
7,19,18828.11,990.9533,1886.091,229.3674,297.0743
8,21,24862.21,1183.915,2208.091,241.1202,313.0989
9,24,32391.39,1349.641,2541.09,252.4323,328.1075
10,27,41192.64,1525.653,2881.088,263.6931,342.1341
11,31,50726.9,1636.352,3206.097,267.081,354.5448
12,34,61582.04,1811.236,3539.095,277.5765,366.4186
13,36,71581.18,1988.366,3862.093,286.7483,377.2437
14,39,83636.51,2144.526,4180.094,291.6946,387.3265
15,40,95595.66,2389.892,5738.117,303.0542,431.1621
16,41,108739.8,2652.189,6059.127,318.46,439.0572
17,41,121777.8,2970.189,6377.134,334.6855,446.6079
18,41,134405.8,3278.189,6685.136,348.3675,453.6856
19,41,147607.7,3600.189,7007.146,361.2693,460.8562
20,39,152473.6,3909.581,7323.14,372.4137,467.6827
21,39,165187.7,4235.581,7649.138,383.6104,474.5221
22,38,177784.7,4678.545,12012.17,395.9232,551.3681
23,36,186525.7,5181.269,16624.26,408.978,614.4475
24,36,198261.8,5507.271,16950.27,418.2421,618.4379
25,36,210177.8,5838.271,17281.27,427.2011,622.4337
26,36,222309.8,6175.273,17618.27,435.9157,626.4521
27,36,234045.8,6501.271,17944.27,443.9986,630.2946
28,36,246213.8,6839.271,18282.27,452.0558,634.2317
29,35,251317.7,7180.506,18603.27,459.7612,637.9245
30,35,263077.8,7516.507,18939.27,467.2154,641.7426
31,33,257307.6,7797.2,19275.27,473.1176,645.5135
32,30,251340.4,8378.013,19602.27,484.838,649.1412
33,29,251817.3,8683.356,19936.27,490.8356,652.8034
34,29,261561.3,9019.355,20272.28,497.3642,656.4457
35,29,271479.3,9361.354,20614.28,503.8297,660.1127
36,27,265564.1,9835.707,20953.27,512.4507,663.7089
37,26,274357.1,10552.2,29227.26,522.5209,741.5745
38,26,283483.1,10903.2,29578.28,528.5635,744.5306
39,25,278707.9,11148.32,29924.29,532.7079,747.4205
40,24,276994.9,11541.45,30271.27,538.9775,750.298
41,24,285394.8,11891.45,30621.27,544.6337,753.1799
42,23,293463.9,12759.3,30963.29,557.151,755.9749
43,23,301467.9,13107.3,31311.29,562.4299,758.7986
44,22,299054.8,13593.4,31653.24,569.5209,761.5521
45,21,306268.8,14584.23,31995.18,581.1883,764.2838
46,21,313681.9,14937.23,32348.2,586.137,767.0815
47,21,320612,15267.24,32678.24,590.6854,769.6805
48,20,327898,16394.9,33030.22,604.0248,772.4355
49,20,334278.2,16713.91,33349.21,608.1839,774.9147
50,17,291543.8,17149.64,48402.32,610.3342,877.3759
51,17,297561.9,17503.64,48756.31,614.8745,879.5144
52,16,290349.9,18146.87,49109.29,622.4315,881.6229
53,16,295581.9,18473.87,49436.29,626.4637,883.5818
54,16,300413.9,18775.87,49738.31,630.1378,885.3754
55,16,304622,19038.88,50001.3,633.3,886.9323
56,16,308782,19298.87,50261.32,636.3946,888.4716
57,16,313181.9,19573.87,50536.29,639.6327,890.0833
58,16,317950,19871.88,50834.28,643.1025,891.816
59,16,322350,20146.88,51109.27,646.2696,893.4149
60,16,326862,20428.88,51391.25,649.4827,895.0461
61,15,316459,21097.27,51674.3,656.6692,896.6916
62,14,320891.1,22920.79,51977.38,672.6054,898.4534
63,14,324923.3,23208.81,52265.54,675.667,900.1279
64,14,328927.2,23494.8,52551.38,678.6761,901.7606
65,14,332847.1,23774.79,52831.3,681.5941,903.359
66,14,336767.2,24054.8,53111.32,684.4863,904.9575
67,14,341135.1,24366.79,53423.25,687.6762,906.7214
68,14,345573.2,24683.8,53740.26,690.8864,908.4976
69,14,350431.1,25030.79,54087.23,694.3634,910.4418
70,14,355359,25382.79,54439.15,697.853,912.3988
71,13,340111.9,26162.46,54753.13,704.9177,914.1486
72,10,322634.6,32263.46,55092.07,755.3976,916.048
73,9,280818.4,31202.05,55424.15,747.1999,917.9025
74,9,283851.5,31539.05,55761.23,750.1109,919.755
75,9,287109.6,31901.06,56123.3,753.2102,921.7451
76,9,290349.5,32261.06,56483.28,756.2672,923.724
77,9,293499.5,32611.05,56833.19,759.2097,925.6117
78,9,296712.4,32968.04,57190.12,762.1848,927.5364
79,9,299907.4,33323.04,57545.12,765.1213,929.4504
80,9,303138.4,33682.04,57904.11,768.0623,931.3596
81,9,306387.3,34043.04,58265.08,770.9964,933.2731
82,9,309699.4,34411.05,58633.11,773.9692,935.2572
83,9,312993.5,34777.05,58999.09,776.8988,937.2166
84,9,316287.3,35143.04,59365.15,779.8052,939.1512
85,9,319509.7,35501.08,59723.38,782.623,941.0435
86,9,322601.6,35844.62,59999.09,785.3319,942.5024
87,9,325481.4,36164.6,59999.09,787.9099,942.5024
88,9,328433.4,36492.6,59999.09,790.5366,942.5024
89,9,331321.4,36813.49,59999.09,793.0833,942.5024
90,9,334265.3,37140.59,59999.09,795.6593,942.5024
91,9,337161.2,37462.36,59999.09,798.1768,942.5024
92,9,340089.2,37787.69,59999.09,800.7004,942.5024
93,9,342937.3,38104.14,59999.09,803.1375,942.5024
94,9,345817.2,38424.13,59999.09,805.5827,942.5024
95,9,348713.1,38745.9,59999.09,808.0223,942.5024
96,9,351633,39070.33,59999.09,810.4658,942.5024
97,9,354585,39398.33,59999.09,812.92,942.5024
98,9,357425.1,39713.9,59999.09,815.2664,942.5024
99,9,360329.1,40036.57,59999.09,817.645,942.5024
100,8,331795.3,41474.41,59999.09,827.4359,942.5024
101,7,274365.6,39195.08,53254.43,813.6283,906.0804
102,7,276892.7,39556.1,53615.43,816.1943,908.1039
103,7,279447.6,39921.09,53980.36,818.7744,910.1489
104,5,194573.1,38914.63,50019.27,812.7106,886.4805
105,5,196408.2,39281.64,50386.4,815.3182,888.6528
106,5,198223,39644.6,50749.19,817.8768,890.7634
107,5,200022.9,40004.59,51109.16,820.3983,892.8566
108,5,201827.9,40365.59,51470.16,822.9094,894.9383
109,5,203653,40730.6,51835.14,825.4375,897.059
110,5,205468,41093.59,52198.15,827.9391,899.1696
111,5,207288.1,41457.63,52562.35,830.4255,901.2547
112,5,209113.3,41822.66,52927.42,832.9098,903.3384
113,5,210898.1,42179.63,53284.37,835.3217,905.374
114,5,212738,42547.6,53652.29,837.786,907.4359
115,5,214533,42906.6,54011.23,840.1804,909.4473
116,4,178232.8,44558.2,54375.18,850.5862,911.4783
117,4,179720.7,44930.16,54747.12,852.9938,913.5353
118,4,181156.6,45289.16,55106.06,855.3046,915.5468
119,4,182604.6,45651.14,55468.02,857.6238,917.5647
120,4,184044.6,46011.16,55828.04,859.9164,919.5437
121,4,185516.5,46379.13,56196.01,862.2508,921.5667
122,4,186948.8,46737.19,56554.08,864.5122,923.5278
123,4,188357.1,47089.27,56906.22,866.7156,925.4257
124,4,189821.1,47455.29,57272.36,868.9935,927.3989
125,4,191265,47816.25,57633.38,871.233,929.3453
126,4,192740.8,48185.2,58002.22,873.5002,931.298
127,4,194192.7,48548.18,58365.11,875.7188,933.221
128,4,195656.7,48914.18,58731.12,877.9568,935.1943
129,4,197120.6,49280.15,59097.11,880.1807,937.1433
130,4,198592.6,49648.14,59465.11,882.4067,939.0885
131,4,200024.5,50006.12,59823.09,884.5662,940.9808
132,4,201304.6,50326.15,59999.09,886.5143,941.9111
133,4,202393.5,50598.37,59999.09,888.2054,941.9111
134,4,203491.4,50872.86,59999.09,889.8959,941.9111
135,4,204607.6,51151.9,59999.09,891.6031,941.9111
136,4,205693.5,51423.39,59999.09,893.2571,941.9111
137,4,206773.7,51693.41,59999.09,894.8943,941.9111
138,4,207865.8,51966.46,59999.09,896.5346,941.9111
139,4,208921.7,52230.43,59999.09,898.1215,941.9111
140,4,209854.5,52463.62,59999.09,899.5188,941.9111
141,4,210862.5,52715.63,59999.09,901.0228,941.9111
142,4,211798.7,52949.68,59999.09,902.4099,941.9111
